# k [h/Mpc]    P(k) [(Mpc/h)^3]
1.042299999999999999e-05 5.241725732180752573e+01
2.329349999999999983e-05 1.134337477544100068e+02
3.620929999999999906e-05 1.732429458549961794e+02
4.920480000000000025e-05 2.325429874856003210e+02
6.231549999999999655e-05 2.917237665960049640e+02
7.557739999999999912e-05 3.510717324176047214e+02
8.902789999999999510e-05 4.108291237149044264e+02
1.027060000000000023e-04 4.712153780834841541e+02
1.166519999999999938e-04 5.324392878419412227e+02
1.309100000000000053e-04 5.947155264946025000e+02
1.455250000000000001e-04 6.582517628020544862e+02
1.605470000000000063e-04 7.232686501889064630e+02
1.760269999999999869e-04 7.899892324227224663e+02
1.920219999999999989e-04 8.586564573576249586e+02
2.085939999999999886e-04 9.295247775707778146e+02
2.258100000000000081e-04 1.002870180130737708e+03
2.437410000000000097e-04 1.078979499321131016e+03
2.624670000000000063e-04 1.158170851951873829e+03
2.820750000000000124e-04 1.240791397703584607e+03
3.026589999999999901e-04 1.327205374912174875e+03
3.243230000000000049e-04 1.417817850703101385e+03
3.471799999999999930e-04 1.513059513810550698e+03
3.713529999999999934e-04 1.613401134399975945e+03
3.969760000000000020e-04 1.719338218194408910e+03
4.241949999999999866e-04 1.831415466145589107e+03
4.531679999999999953e-04 1.950209276560727403e+03
4.840620000000000014e-04 2.076319932890065047e+03
5.170570000000000201e-04 2.210391000909901777e+03
5.523410000000000299e-04 2.353064834746518500e+03
5.901079999999999954e-04 2.505007044759154724e+03
6.305590000000000457e-04 2.666866633579660629e+03
6.738920000000000457e-04 2.839276503458634124e+03
7.203020000000000299e-04 3.022816204856548211e+03
7.699729999999999682e-04 3.218004937139193316e+03
8.230699999999999648e-04 3.425244743944389938e+03
8.797359999999999946e-04 3.644833214288599720e+03
9.400819999999999619e-04 3.876912544798966792e+03
1.004179999999999916e-03 4.121434778904716040e+03
1.072079999999999995e-03 4.378281028772550599e+03
1.143759999999999959e-03 4.646986652688475260e+03
1.219170000000000106e-03 4.927024477651201778e+03
1.298239999999999984e-03 5.217742069990294112e+03
1.380829999999999991e-03 5.518250043112704589e+03
1.466800000000000092e-03 5.827626610294953025e+03
1.555959999999999895e-03 6.144869649048559040e+03
1.648139999999999978e-03 6.469012442964416550e+03
1.743130000000000070e-03 6.798978878456280654e+03
1.840739999999999998e-03 7.133790530313303861e+03
1.940759999999999924e-03 7.472433289407857956e+03
2.043000000000000111e-03 7.813995577107659301e+03
2.147280000000000109e-03 8.157613856877644139e+03
2.253419999999999902e-03 8.502467769073506133e+03
2.361260000000000008e-03 8.847856786389780609e+03
2.470650000000000016e-03 9.193109168232642332e+03
2.581449999999999891e-03 9.537613568247723379e+03
2.693549999999999851e-03 9.880930129436357674e+03
2.806819999999999801e-03 1.022251264235153758e+04
2.921159999999999902e-03 1.056196235863361107e+04
3.036469999999999881e-03 1.089890191343360857e+04
3.152680000000000152e-03 1.123305431265628249e+04
3.269699999999999950e-03 1.156411480084869436e+04
3.387470000000000064e-03 1.189187513020242659e+04
3.505920000000000043e-03 1.221610829288193781e+04
3.625000000000000184e-03 1.253664250126349361e+04
3.744659999999999916e-03 1.285334427553146088e+04
3.864840000000000029e-03 1.316600428722129800e+04
3.985520000000000208e-03 1.347463915483811252e+04
4.106649999999999884e-03 1.377906280916279138e+04
4.228199999999999667e-03 1.407928039000557328e+04
4.350129999999999796e-03 1.437512268156092614e+04
4.472430000000000329e-03 1.466664414982255948e+04
4.595059999999999770e-03 1.495378212753289881e+04
4.717999999999999972e-03 1.523647800648531666e+04
4.841220000000000245e-03 1.551464394252044622e+04
4.964719999999999724e-03 1.578846168427729390e+04
5.088470000000000319e-03 1.605778541681267779e+04
5.212460000000000357e-03 1.632263572043574459e+04
5.336669999999999955e-03 1.658315573830158974e+04
5.461090000000000041e-03 1.683919225808399642e+04
5.585699999999999867e-03 1.709078382515993508e+04
5.710490000000000357e-03 1.733745440456384313e+04
5.835459999999999779e-03 1.758024542129389374e+04
5.960589999999999986e-03 1.781870564935696893e+04
6.085880000000000109e-03 1.805282587750043604e+04
6.211310000000000268e-03 1.828257932647489361e+04
6.336879999999999596e-03 1.850812485507105157e+04
6.462589999999999828e-03 1.872945533833228183e+04
6.588410000000000273e-03 1.894630157769976358e+04
6.714359999999999946e-03 1.915932504351496391e+04
6.840409999999999893e-03 1.936813073865122715e+04
6.966579999999999995e-03 1.957326764165368877e+04
7.092850000000000370e-03 1.977403555822007547e+04
7.219210000000000210e-03 1.997033828580792033e+04
7.345670000000000324e-03 2.016361207731858667e+04
7.472219999999999904e-03 2.035264463967415213e+04
7.598849999999999875e-03 2.053763283953015707e+04
7.725570000000000180e-03 2.071868624152446137e+04
7.852359999999999202e-03 2.089583907692079447e+04
7.979240000000000291e-03 2.106943430698328666e+04
8.106179999999999289e-03 2.123897786142782934e+04
8.233189999999999606e-03 2.140515032803584472e+04
8.360279999999999448e-03 2.156839586580536343e+04
8.487430000000000668e-03 2.172723547472816790e+04
8.614639999999999798e-03 2.188243667915690457e+04
8.741910000000000305e-03 2.203414601102841334e+04
8.869240000000000457e-03 2.218234924801600573e+04
8.996630000000000252e-03 2.232719611547217573e+04
9.124079999999999691e-03 2.246749448706528347e+04
9.251580000000000567e-03 2.260549104562560024e+04
9.379129999999999412e-03 2.274017054143638597e+04
9.506739999999999635e-03 2.287234565034499246e+04
9.634389999999999621e-03 2.300045727540292501e+04
9.762099999999999250e-03 2.312521415019964843e+04
9.889850000000000377e-03 2.324678206657615010e+04
1.001759999999999977e-02 2.336415298687680843e+04
1.014550000000000000e-02 2.348063161479587143e+04
1.027340000000000024e-02 2.359286747682282657e+04
1.040130000000000048e-02 2.370105662508489695e+04
1.052930000000000012e-02 2.380827725734409978e+04
1.065729999999999976e-02 2.391059175608398073e+04
1.078540000000000054e-02 2.401178873543287773e+04
1.091349999999999959e-02 2.410919651848510694e+04
1.104160000000000037e-02 2.420359937320059180e+04
1.116980000000000056e-02 2.429524208754179563e+04
1.129800000000000075e-02 2.438394828320000306e+04
1.142630000000000035e-02 2.446930694311123079e+04
1.155459999999999994e-02 2.455257504282440277e+04
1.168289999999999954e-02 2.463413456832897282e+04
1.181130000000000027e-02 2.471098195917799603e+04
1.193969999999999927e-02 2.478726038562530448e+04
1.206810000000000001e-02 2.485893265877782687e+04
1.219660000000000015e-02 2.492999397024758946e+04
1.232519999999999970e-02 2.499675120926010641e+04
1.245369999999999984e-02 2.506252486002429578e+04
1.258229999999999939e-02 2.512514088789832022e+04
1.271090000000000067e-02 2.518393566213947270e+04
1.283959999999999962e-02 2.524190882505576155e+04
1.296830000000000031e-02 2.529702607112236728e+04
1.309710000000000041e-02 2.534999464297518352e+04
1.322579999999999936e-02 2.540040402282118885e+04
1.335459999999999946e-02 2.544937328809887185e+04
1.348350000000000069e-02 2.549535685148857010e+04
1.361240000000000019e-02 2.553927457999852413e+04
1.374129999999999970e-02 2.558036028948766761e+04
1.387030000000000034e-02 2.561925260184647050e+04
1.399919999999999984e-02 2.565665458742614283e+04
1.412829999999999989e-02 2.569180686087212234e+04
1.425730000000000053e-02 2.572383356766920406e+04
1.438649999999999998e-02 2.575521488361716547e+04
1.451560000000000003e-02 2.578315030489286437e+04
1.464479999999999948e-02 2.580905066425836776e+04
1.477400000000000067e-02 2.583496930954008712e+04
1.490320000000000013e-02 2.585738555075328622e+04
1.503250000000000072e-02 2.587716092527150977e+04
1.516190000000000072e-02 2.589538452315279210e+04
1.529119999999999958e-02 2.591330208100049640e+04
1.542070000000000073e-02 2.592835311822192671e+04
1.555010000000000073e-02 2.594122797304214328e+04
1.567959999999999840e-02 2.595250850883916428e+04
1.580909999999999954e-02 2.596166943327492845e+04
1.593870000000000009e-02 2.596928464163773242e+04
1.606830000000000064e-02 2.597395744013961303e+04
1.619800000000000059e-02 2.597799921163079489e+04
1.632770000000000055e-02 2.598033461844585690e+04
1.645740000000000050e-02 2.598099010573266423e+04
1.658719999999999986e-02 2.598014223953363035e+04
1.671699999999999922e-02 2.597750297919956211e+04
1.684690000000000146e-02 2.597316339053681804e+04
1.697680000000000022e-02 2.596740218001524408e+04
1.710679999999999840e-02 2.595998456871676535e+04
1.723680000000000004e-02 2.595201202143642877e+04
1.736690000000000109e-02 2.594046214187383157e+04
1.749699999999999867e-02 2.592832070670726171e+04
1.762719999999999912e-02 2.591485368428207585e+04
1.775739999999999957e-02 2.589977625445683225e+04
1.788760000000000003e-02 2.588327724833389948e+04
1.801789999999999989e-02 2.586526815727957364e+04
1.814829999999999915e-02 2.584610175677146617e+04
1.827869999999999842e-02 2.582541167776752263e+04
1.840920000000000056e-02 2.580335429444178590e+04
1.853969999999999924e-02 2.578015224145368120e+04
1.867030000000000078e-02 2.575528502538435350e+04
1.880089999999999886e-02 2.572948557297255684e+04
1.893159999999999982e-02 2.570197304494015407e+04
1.906240000000000018e-02 2.567446935673245025e+04
1.919320000000000054e-02 2.564464845889910066e+04
1.932410000000000030e-02 2.561282228818107251e+04
1.945500000000000007e-02 2.558145791544232270e+04
1.958599999999999924e-02 2.554734975888409099e+04
1.971699999999999842e-02 2.551349300447407222e+04
1.984819999999999987e-02 2.547695717563995277e+04
1.997940000000000133e-02 2.544062903482355614e+04
2.011059999999999931e-02 2.540288336451933719e+04
2.024199999999999958e-02 2.536336755709320278e+04
2.037339999999999984e-02 2.532360197184343997e+04
2.050480000000000011e-02 2.528273500289650838e+04
2.063639999999999919e-02 2.524040548776475043e+04
2.076799999999999827e-02 2.519780037451899261e+04
2.089970000000000022e-02 2.515302816476697626e+04
2.103150000000000158e-02 2.510795610822879826e+04
2.116329999999999947e-02 2.506204719461049535e+04
2.129520000000000024e-02 2.501507860986149899e+04
2.142720000000000041e-02 2.496679803685617662e+04
2.155929999999999999e-02 2.491820023520927134e+04
2.169149999999999898e-02 2.486876760016260232e+04
2.182380000000000084e-02 2.481833651922435092e+04
2.195609999999999923e-02 2.476672336598240145e+04
2.208859999999999990e-02 2.471406950778622195e+04
2.222110000000000057e-02 2.466098312575056116e+04
2.235370000000000065e-02 2.460740951129194218e+04
2.248649999999999954e-02 2.455247555585509690e+04
2.261929999999999844e-02 2.449697777787867381e+04
2.275220000000000020e-02 2.444076583831093740e+04
2.288520000000000137e-02 2.438376344583689570e+04
2.301840000000000136e-02 2.432681391304455610e+04
2.315160000000000134e-02 2.426772601308467347e+04
2.328490000000000074e-02 2.420861772825008666e+04
2.341839999999999894e-02 2.414896522683830335e+04
2.355200000000000002e-02 2.408913954163649032e+04
2.368560000000000110e-02 2.402731732885284873e+04
2.381940000000000099e-02 2.396627284495637286e+04
2.395339999999999969e-02 2.390335674601260325e+04
2.408739999999999840e-02 2.384040966899357954e+04
2.422159999999999938e-02 2.377690101920318193e+04
2.435580000000000037e-02 2.371274674059778408e+04
2.449029999999999957e-02 2.364814797313072268e+04
2.462479999999999877e-02 2.358283701546992233e+04
2.475950000000000026e-02 2.351710375094154733e+04
2.489430000000000115e-02 2.345114658387553936e+04
2.502930000000000085e-02 2.338404739761427481e+04
2.516439999999999996e-02 2.331674773066907801e+04
2.529970000000000135e-02 2.324907005351384942e+04
2.543509999999999868e-02 2.318075074416686402e+04
2.557069999999999829e-02 2.311244793263276006e+04
2.570640000000000078e-02 2.304287293948821389e+04
2.584229999999999861e-02 2.297324223515017002e+04
2.597829999999999931e-02 2.290329480469636110e+04
2.611460000000000170e-02 2.283330435572008355e+04
2.625100000000000003e-02 2.276217514916257278e+04
2.638750000000000123e-02 2.269123038698001619e+04
2.652430000000000065e-02 2.261961393045699151e+04
2.666119999999999948e-02 2.254754555516478649e+04
2.679830000000000059e-02 2.247521104840645057e+04
2.693569999999999992e-02 2.240279373638896868e+04
2.707319999999999866e-02 2.232976582390779004e+04
2.721089999999999967e-02 2.225640492821076987e+04
2.734879999999999950e-02 2.218300306895457470e+04
2.748690000000000161e-02 2.210900301076166943e+04
2.762529999999999847e-02 2.203515106711773478e+04
2.776380000000000167e-02 2.196064084847245613e+04
2.790259999999999962e-02 2.188591683446577008e+04
2.804159999999999986e-02 2.181072158795605355e+04
2.818089999999999831e-02 2.173561115648123450e+04
2.832039999999999905e-02 2.166051923862985132e+04
2.846009999999999859e-02 2.158460068890766343e+04
2.860009999999999983e-02 2.150878953392196490e+04
2.874039999999999928e-02 2.143252267783875504e+04
2.888090000000000102e-02 2.135630538788465492e+04
2.902170000000000097e-02 2.127983623798884582e+04
2.916279999999999914e-02 2.120331169461219179e+04
2.930409999999999959e-02 2.112628812893584472e+04
2.944580000000000114e-02 2.104948186921204251e+04
2.958770000000000150e-02 2.097228518097506822e+04
2.972990000000000008e-02 2.089496383022391819e+04
2.987249999999999975e-02 2.081768620543607176e+04
3.001540000000000111e-02 2.074010418578296230e+04
3.015860000000000068e-02 2.066231903641532335e+04
3.030209999999999848e-02 2.058443215190055707e+04
3.044600000000000084e-02 2.050651416308700209e+04
3.059030000000000082e-02 2.042866492541606931e+04
3.073479999999999962e-02 2.035047486405391828e+04
3.087979999999999892e-02 2.027223599417696460e+04
3.102519999999999931e-02 2.019398401399269278e+04
3.117090000000000138e-02 2.011546980049494596e+04
3.131699999999999762e-02 2.003695185326770297e+04
3.146360000000000129e-02 1.995859100656187002e+04
3.161049999999999971e-02 1.988007764169187431e+04
3.175789999999999863e-02 1.980153711801380996e+04
3.190579999999999805e-02 1.972268449472651628e+04
3.205410000000000204e-02 1.964403835851386248e+04
3.220279999999999671e-02 1.956550711624950054e+04
3.235210000000000169e-02 1.948663528678161674e+04
3.250179999999999736e-02 1.940778857567586601e+04
3.265200000000000047e-02 1.932893201874381703e+04
3.280269999999999714e-02 1.925016413907524111e+04
3.295399999999999718e-02 1.917125557334157202e+04
3.310579999999999773e-02 1.909234395535599469e+04
3.325820000000000165e-02 1.901358277768634434e+04
3.341109999999999913e-02 1.893472689826981878e+04
3.356459999999999999e-02 1.885592887370122844e+04
3.371880000000000016e-02 1.877733943276960417e+04
3.387350000000000083e-02 1.869827637417300502e+04
3.402890000000000081e-02 1.861942351989340750e+04
3.418500000000000011e-02 1.854068482332458007e+04
3.434170000000000278e-02 1.846200868810443353e+04
3.449920000000000070e-02 1.838321070067755136e+04
3.465730000000000199e-02 1.830447631079942948e+04
3.481619999999999854e-02 1.822590752859409258e+04
3.497580000000000133e-02 1.814726127845624796e+04
3.513630000000000225e-02 1.806863652368100520e+04
3.529750000000000248e-02 1.799002911768076592e+04
3.545949999999999797e-02 1.791148790537043169e+04
3.562239999999999851e-02 1.783296397882818565e+04
3.578619999999999718e-02 1.775464734239429526e+04
3.595090000000000091e-02 1.767634381776115333e+04
3.611650000000000277e-02 1.759785931253115632e+04
3.628309999999999869e-02 1.751943043556023622e+04
3.645070000000000254e-02 1.744143836804161765e+04
3.661930000000000046e-02 1.736320772255341217e+04
3.678900000000000226e-02 1.728487682041572407e+04
3.695969999999999811e-02 1.720678118487579559e+04
3.713160000000000072e-02 1.712871856309888244e+04
3.730460000000000026e-02 1.705073612190564018e+04
3.747890000000000249e-02 1.697272507075437534e+04
3.765439999999999759e-02 1.689473242656119692e+04
3.783120000000000233e-02 1.681689226767016589e+04
3.800930000000000281e-02 1.673900685952035201e+04
3.818880000000000191e-02 1.666120856675572577e+04
3.836969999999999964e-02 1.658339480067395925e+04
3.855209999999999887e-02 1.650560024733878890e+04
3.873599999999999960e-02 1.642791346675996465e+04
3.892149999999999777e-02 1.635027151915566174e+04
3.910860000000000031e-02 1.627257017786459073e+04
3.929749999999999910e-02 1.619497647813666299e+04
3.948809999999999820e-02 1.611734509748592609e+04
3.968050000000000049e-02 1.603961006411734161e+04
3.987489999999999785e-02 1.596203037642785603e+04
4.007129999999999720e-02 1.588459419765835082e+04
4.026969999999999855e-02 1.580690620071904777e+04
4.047019999999999784e-02 1.572937607213238152e+04
4.067300000000000082e-02 1.565177767633999792e+04
4.087810000000000055e-02 1.557409682317789338e+04
4.108570000000000277e-02 1.549648789064754965e+04
4.129580000000000056e-02 1.541883909047119596e+04
4.150849999999999679e-02 1.534107441134260444e+04
4.172399999999999720e-02 1.526353533877623158e+04
4.194239999999999774e-02 1.518547127746989645e+04
4.216380000000000128e-02 1.510766462248432435e+04
4.238829999999999681e-02 1.502965019718765689e+04
4.261619999999999991e-02 1.495150848595867137e+04
4.284759999999999958e-02 1.487344109846516039e+04
4.308250000000000274e-02 1.479513627271491350e+04
4.332140000000000296e-02 1.471673327505875386e+04
4.356419999999999737e-02 1.463817109690901998e+04
4.381129999999999747e-02 1.455945419128517096e+04
4.406290000000000207e-02 1.448061451185130500e+04
4.431920000000000304e-02 1.440148985849879500e+04
4.458050000000000207e-02 1.432223407936585863e+04
4.484699999999999798e-02 1.424287088364337615e+04
4.511910000000000226e-02 1.416290652459127159e+04
4.539719999999999867e-02 1.408289681927966558e+04
4.568149999999999988e-02 1.400247050968886288e+04
4.597249999999999948e-02 1.392210850793368081e+04
4.627069999999999794e-02 1.384055828135342381e+04
4.657639999999999697e-02 1.375919019677718097e+04
4.689030000000000281e-02 1.367737214813045648e+04
4.721290000000000209e-02 1.359507873711830507e+04
4.754479999999999817e-02 1.351201697611667623e+04
4.788680000000000020e-02 1.342851563877509034e+04
4.823960000000000053e-02 1.334457781133495882e+04
4.860420000000000018e-02 1.325969842670208891e+04
4.898140000000000133e-02 1.317417130756992628e+04
4.937230000000000091e-02 1.308787437126111581e+04
4.977829999999999755e-02 1.300045529500330849e+04
5.020059999999999800e-02 1.291226128537706245e+04
5.064099999999999852e-02 1.282289996218514534e+04
5.110100000000000059e-02 1.273255335220882444e+04
5.158290000000000097e-02 1.264031245510127519e+04
5.208890000000000048e-02 1.254704127116712334e+04
5.262189999999999923e-02 1.245169629223113225e+04
5.318490000000000023e-02 1.235455840799215730e+04
5.378170000000000173e-02 1.225438154768658751e+04
5.441660000000000247e-02 1.215276853254563139e+04
5.509470000000000339e-02 1.204723237413956667e+04
5.582220000000000237e-02 1.193841837307678907e+04
5.660620000000000235e-02 1.182527141309512444e+04
5.745539999999999675e-02 1.170698797630185982e+04
5.838030000000000302e-02 1.158271112536686815e+04
5.939309999999999728e-02 1.145036794790700333e+04
6.050849999999999979e-02 1.130831204106942096e+04
6.174400000000000027e-02 1.115370374335972156e+04
6.311930000000000318e-02 1.098277749009148829e+04
6.465629999999999988e-02 1.079182706092876833e+04
6.637730000000000019e-02 1.057404598148979130e+04
6.830250000000000210e-02 1.032192364166078005e+04
7.044530000000000236e-02 1.002915275213809036e+04
7.280770000000000297e-02 9.688981172685194906e+03
7.537679999999999381e-02 9.298909747658944980e+03
7.812579999999999525e-02 8.862141343975639757e+03
8.101899999999999380e-02 8.389622200338937546e+03
8.401959999999999984e-02 7.896766283345249576e+03
8.709530000000000050e-02 7.403284202966032353e+03
9.022099999999999564e-02 6.928065095070035568e+03
9.337900000000000367e-02 6.487244394234850915e+03
9.655740000000000156e-02 6.092214127677639226e+03
9.974840000000000095e-02 5.749179728385049202e+03
1.029469999999999968e-01 5.459664357067571473e+03
1.061509999999999954e-01 5.220974381578686916e+03
1.093569999999999959e-01 5.027042211225111714e+03
